num,square,cube,theta,sin(theta)
0,0,0,0.0,0.0
1,1,1,0.006283185307179587,0.006283143965558951
2,4,8,0.012566370614359173,0.012566039883352607
3,9,27,0.01884955592153876,0.018848439715408175
4,16,64,0.025132741228718346,0.02513009544333748
5,25,125,0.031415926535897934,0.03141075907812829
6,36,216,0.03769911184307752,0.03769018266993454
7,49,343,0.04398229715025711,0.04396811831786491
8,64,512,0.05026548245743669,0.050244318179769556
9,81,729,0.05654866776461628,0.05651853448202453
10,100,1000,0.06283185307179587,0.06279051952931337
11,121,1331,0.06911503837897545,0.0690600257144058
12,144,1728,0.07539822368615504,0.07532680552793272
13,169,2197,0.08168140899333462,0.08159061156815754
14,196,2744,0.08796459430051422,0.08785119655074318
15,225,3375,0.0942477796076938,0.09410831331851433
16,256,4096,0.10053096491487339,0.1003617148512149
17,289,4913,0.10681415022205297,0.10661115427525991
18,324,5832,0.11309733552923255,0.11285638487348168
19,361,6859,0.11938052083641215,0.11909716009486974
20,400,8000,0.12566370614359174,0.12533323356430426
21,441,9261,0.13194689145077132,0.1315643590922825
22,484,10648,0.1382300767579509,0.13779029068463808
23,529,12167,0.1445132620651305,0.14401078255225216
24,576,13824,0.15079644737231007,0.15022558912075706
25,625,15625,0.15707963267948966,0.15643446504023087
26,676,17576,0.16336281798666924,0.16263716519488358
27,729,19683,0.16964600329384885,0.1688334447127339
28,784,21952,0.17592918860102844,0.17502305897527606
29,841,24389,0.18221237390820802,0.18120576362713736
30,900,27000,0.1884955592153876,0.18738131458572463
31,961,29791,0.1947787445225672,0.19354946805086026
32,1024,32768,0.20106192982974677,0.19970998051440703
33,1089,35937,0.20734511513692636,0.20586260876988133
34,1156,39304,0.21362830044410594,0.21200710992205463
35,1225,42875,0.21991148575128552,0.21814324139654254
36,1296,46656,0.2261946710584651,0.22427076094938117
37,1369,50653,0.2324778563656447,0.23038942667659057
38,1444,54872,0.2387610416728243,0.2364989970237247
39,1521,59319,0.2450442269800039,0.24259923079540743
40,1600,64000,0.25132741228718347,0.2486898871648548
41,1681,68921,0.25761059759436306,0.25477072568338216
42,1764,74088,0.26389378290154264,0.26084150628989694
43,1849,79507,0.2701769682087222,0.26690198932037557
44,1936,85184,0.2764601535159018,0.2729519355173252
45,2025,91125,0.2827433388230814,0.2789911060392293
46,2116,97336,0.289026524130261,0.2850192624699761
47,2209,103823,0.29530970943744056,0.2910361668282718
48,2304,110592,0.30159289474462014,0.2970415815770349
49,2401,117649,0.3078760800517997,0.30303526963277394
50,2500,125000,0.3141592653589793,0.3090169943749474
51,2601,132651,0.3204424506661589,0.3149865196553048
52,2704,140608,0.3267256359733385,0.3209436098072095
53,2809,148877,0.33300882128051806,0.32688802965494246
54,2916,157464,0.3392920065876977,0.3328195445229867
55,3025,166375,0.3455751918948773,0.3387379202452914
56,3136,175616,0.35185837720205687,0.34464292317451706
57,3249,185193,0.35814156250923646,0.350534320191259
58,3364,195112,0.36442474781641604,0.35641187871325075
59,3481,205379,0.3707079331235956,0.3622753667045457
60,3600,216000,0.3769911184307752,0.368124552684678
61,3721,226981,0.3832743037379548,0.37395920573780045
62,3844,238328,0.3895574890451344,0.3797790955218011
63,3969,250047,0.39584067435231396,0.38558399227739654
64,4096,262144,0.40212385965949354,0.3913736668372024
65,4225,274625,0.4084070449666731,0.3971478906347806
66,4356,287496,0.4146902302738527,0.40290643571366264
67,4489,300763,0.4209734155810323,0.40864907473634904
68,4624,314432,0.4272566008882119,0.41437558099328414
69,4761,328509,0.43353978619539146,0.42008572841180625
70,4900,343000,0.43982297150257105,0.42577929156507266
71,5041,357911,0.44610615680975063,0.43145604568095897
72,5184,373248,0.4523893421169302,0.4371157666509329
73,5329,389017,0.4586725274241098,0.4427582310389015
74,5476,405224,0.4649557127312894,0.44838321609003223
75,5625,421875,0.471238898038469,0.4539904997395468
76,5776,438976,0.4775220833456486,0.45957986062148787
77,5929,456533,0.4838052686528282,0.46515107807745837
78,6084,474552,0.4900884539600078,0.4707039321653326
79,6241,493039,0.49637163926718736,0.4762382036679391
80,6400,512000,0.5026548245743669,0.4817536741017153
81,6561,531441,0.5089380098815465,0.4872501257253323
82,6724,551368,0.5152211951887261,0.49272734154829156
83,6889,571787,0.5215043804959056,0.4981851053394908
84,7056,592704,0.5277875658030853,0.5036232016357608
85,7225,614125,0.5340707511102648,0.5090414157503713
86,7396,636056,0.5403539364174444,0.5144395337815064
87,7569,658503,0.5466371217246241,0.5198173426207096
88,7744,681472,0.5529203070318036,0.5251746299612957
89,7921,704969,0.5592034923389833,0.530511184306734
90,8100,729000,0.5654866776461628,0.5358267949789967
91,8281,753571,0.5717698629533424,0.5411212521268759
92,8464,778688,0.578053048260522,0.5463943467342691
93,8649,804357,0.5843362335677016,0.5516458706284303
94,8836,830584,0.5906194188748811,0.556875616488188
95,9025,857375,0.5969026041820608,0.5620833778521306
96,9216,884736,0.6031857894892403,0.5672689491267565
97,9409,912673,0.6094689747964199,0.5724321255945909
98,9604,941192,0.6157521601035995,0.5775727034222676
99,9801,970299,0.6220353454107791,0.5826904796685761
100,10000,1000000,0.6283185307179586,0.5877852522924731
101,10201,1030301,0.6346017160251383,0.5928568201610592
102,10404,1061208,0.6408849013323178,0.5979049830575188
103,10609,1092727,0.6471680866394974,0.6029295416890247
104,10816,1124864,0.653451271946677,0.6079302976946054
105,11025,1157625,0.6597344572538566,0.6129070536529765
106,11236,1191016,0.6660176425610361,0.6178596130903343
107,11449,1225043,0.6723008278682158,0.6227877804881126
108,11664,1259712,0.6785840131753954,0.6276913612907006
109,11881,1295029,0.6848671984825749,0.6325701619131244
110,12100,1331000,0.6911503837897546,0.6374239897486897
111,12321,1367631,0.6974335690969341,0.6422526531765844
112,12544,1404928,0.7037167544041137,0.6470559615694443
113,12769,1442897,0.7099999397112933,0.6518337253008788
114,12996,1481544,0.7162831250184729,0.6565857557529565
115,13225,1520875,0.7225663103256524,0.6613118653236518
116,13456,1560896,0.7288494956328321,0.6660118674342517
117,13689,1601613,0.7351326809400116,0.67068557653672
118,13924,1643032,0.7414158662471912,0.6753328081210245
119,14161,1685159,0.7476990515543708,0.6799533787224192
120,14400,1728000,0.7539822368615504,0.6845471059286887
121,14641,1771561,0.7602654221687299,0.6891138083873485
122,14884,1815848,0.7665486074759096,0.693653305812805
123,15129,1860867,0.7728317927830891,0.6981654189934726
124,15376,1906624,0.7791149780902688,0.7026499697988492
125,15625,1953125,0.7853981633974483,0.7071067811865475
126,15876,2000376,0.7916813487046279,0.7115356772092853
127,16129,2048383,0.7979645340118074,0.7159364830218311
128,16384,2097152,0.8042477193189871,0.7203090248879069
129,16641,2146689,0.8105309046261667,0.7246531301870467
130,16900,2197000,0.8168140899333463,0.7289686274214116
131,17161,2248091,0.8230972752405259,0.7332553462225601
132,17424,2299968,0.8293804605477054,0.7375131173581739
133,17689,2352637,0.8356636458548851,0.7417417727387392
134,17956,2406104,0.8419468311620646,0.7459411454241821
135,18225,2460375,0.8482300164692442,0.7501110696304596
136,18496,2515456,0.8545132017764238,0.7542513807361038
137,18769,2571353,0.8607963870836034,0.7583619152887219
138,19044,2628072,0.8670795723907829,0.7624425110114479
139,19321,2685619,0.8733627576979626,0.7664930068093498
140,19600,2744000,0.8796459430051421,0.7705132427757893
141,19881,2803221,0.8859291283123217,0.7745030601987338
142,20164,2863288,0.8922123136195013,0.7784623015670235
143,20449,2924207,0.8984954989266809,0.7823908105765881
144,20736,2985984,0.9047786842338604,0.7862884321366189
145,21025,3048625,0.9110618695410401,0.7901550123756904
146,21316,3112136,0.9173450548482196,0.7939903986478353
147,21609,3176523,0.9236282401553992,0.797794439538571
148,21904,3241792,0.9299114254625788,0.8015669848708765
149,22201,3307949,0.9361946107697584,0.805307885711122
150,22500,3375000,0.942477796076938,0.8090169943749475
151,22801,3442951,0.9487609813841176,0.812694164433094
152,23104,3511808,0.9550441666912972,0.816339250717184
153,23409,3581577,0.9613273519984767,0.8199521093254524
154,23716,3652264,0.9676105373056564,0.8235325976284275
155,24025,3723875,0.9738937226128359,0.8270805742745618
156,24336,3796416,0.9801769079200155,0.8305958991958127
157,24649,3869893,0.9864600932271951,0.8340784336131711
158,24964,3944312,0.9927432785343747,0.8375280400421418
159,25281,4019679,0.9990264638415542,0.840944582298169
160,25600,4096000,1.0053096491487339,0.8443279255020151
161,25921,4173281,1.0115928344559135,0.8476779360850832
162,26244,4251528,1.017876019763093,0.8509944817946918
163,26569,4330747,1.0241592050702726,0.8542774316992952
164,26896,4410944,1.0304423903774522,0.8575266561936523
165,27225,4492125,1.0367255756846319,0.8607420270039436
166,27556,4574296,1.0430087609918113,0.8639234171928353
167,27889,4657463,1.049291946298991,0.86707070116449
168,28224,4741632,1.0555751316061706,0.8701837546695257
169,28561,4826809,1.0618583169133502,0.8732624548099202
170,28900,4913000,1.0681415022205296,0.8763066800438636
171,29241,5000211,1.0744246875277093,0.8793163101905562
172,29584,5088448,1.080707872834889,0.8822912264349533
173,29929,5177717,1.0869910581420685,0.8852313113324553
174,30276,5268024,1.0932742434492482,0.8881364488135446
175,30625,5359375,1.0995574287564276,0.8910065241883678
176,30976,5451776,1.1058406140636072,0.8938414241512638
177,31329,5545233,1.1121237993707869,0.8966410367852359
178,31684,5639752,1.1184069846779665,0.8994052515663711
179,32041,5735339,1.124690169985146,0.9021339593682028
180,32400,5832000,1.1309733552923256,0.9048270524660196
181,32761,5929741,1.1372565405995052,0.907484424541117
182,33124,6028568,1.1435397259066848,0.9101059706849958
183,33489,6128487,1.1498229112138643,0.9126915874035028
184,33856,6229504,1.156106096521044,0.9152411726209175
185,34225,6331625,1.1623892818282235,0.9177546256839811
186,34596,6434856,1.1686724671354032,0.9202318473658704
187,34969,6539203,1.1749556524425826,0.9226727398701148
188,35344,6644672,1.1812388377497622,0.925077206834458
189,35721,6751269,1.1875220230569419,0.9274451533346614
190,36100,6859000,1.1938052083641215,0.9297764858882515
191,36481,6967871,1.200088393671301,0.932071112458211
192,36864,7077888,1.2063715789784806,0.934328942456612
193,37249,7189057,1.2126547642856602,0.9365498867481924
194,37636,7301384,1.2189379495928399,0.9387338576538741
195,38025,7414875,1.2252211349000195,0.9408807689542256
196,38416,7529536,1.231504320207199,0.9429905358928644
197,38809,7645373,1.2377875055143785,0.9450630751798048
198,39204,7762392,1.2440706908215582,0.9470983049947443
199,39601,7880599,1.2503538761287378,0.9490961449902946
200,40000,8000000,1.2566370614359172,0.9510565162951535
201,40401,8120601,1.2629202467430969,0.9529793415172189
202,40804,8242408,1.2692034320502765,0.954864544746643
203,41209,8365427,1.2754866173574562,0.9567120515588305
204,41616,8489664,1.2817698026646356,0.9585217890173758
205,42025,8615125,1.2880529879718152,0.9602936856769431
206,42436,8741816,1.2943361732789949,0.9620276715860859
207,42849,8869743,1.3006193585861745,0.9637236782900097
208,43264,8998912,1.306902543893354,0.9653816388332739
209,43681,9129329,1.3131857292005336,0.9670014877624351
210,44100,9261000,1.3194689145077132,0.9685831611286311
211,44521,9393931,1.3257520998148928,0.9701265964901059
212,44944,9528128,1.3320352851220723,0.971631732914674
213,45369,9663597,1.338318470429252,0.9730985109821265
214,45796,9800344,1.3446016557364315,0.9745268727865771
215,46225,9938375,1.3508848410436112,0.9759167619387474
216,46656,10077696,1.3571680263507908,0.9772681235681935
217,47089,10218313,1.3634512116579702,0.9785809043254721
218,47524,10360232,1.3697343969651499,0.9798550523842469
219,47961,10503459,1.3760175822723295,0.9810905174433341
220,48400,10648000,1.3823007675795091,0.9822872507286887
221,48841,10793861,1.3885839528866886,0.9834452049953297
222,49284,10941048,1.3948671381938682,0.9845643345292053
223,49729,11089567,1.4011503235010478,0.985644595148998
224,50176,11239424,1.4074335088082275,0.986685944207868
225,50625,11390625,1.413716694115407,0.9876883405951378
226,51076,11543176,1.4199998794225865,0.9886517447379141
227,51529,11697083,1.4262830647297662,0.9895761186026509
228,51984,11852352,1.4325662500369458,0.9904614256966512
229,52441,12008989,1.4388494353441252,0.9913076310695066
230,52900,12167000,1.4451326206513049,0.9921147013144779
231,53361,12326391,1.4514158059584845,0.9928826045698137
232,53824,12487168,1.4576989912656642,0.9936113105200084
233,54289,12649337,1.4639821765728436,0.9943007903969989
234,54756,12812904,1.4702653618800232,0.9949510169813002
235,55225,12977875,1.4765485471872029,0.99556196460308
236,55696,13144256,1.4828317324943825,0.9961336091431725
237,56169,13312053,1.4891149178015621,0.9966659280340299
238,56644,13481272,1.4953981031087415,0.9971589002606139
239,57121,13651919,1.5016812884159212,0.9976125063612252
240,57600,13824000,1.5079644737231008,0.9980267284282716
241,58081,13997521,1.5142476590302805,0.998401550108975
242,58564,14172488,1.5205308443374599,0.9987369566060175
243,59049,14348907,1.5268140296446395,0.9990329346781247
244,59536,14526784,1.5330972149518192,0.9992894726405892
245,60025,14706125,1.5393804002589988,0.9995065603657316
246,60516,14886936,1.5456635855661782,0.9996841892832999
247,61009,15069223,1.5519467708733579,0.999822352380809
248,61504,15252992,1.5582299561805375,0.9999210442038161
249,62001,15438249,1.5645131414877171,0.9999802608561371
250,62500,15625000,1.5707963267948966,1.0
251,63001,15813251,1.5770795121020762,0.9999802608561371
252,63504,16003008,1.5833626974092558,0.9999210442038161
253,64009,16194277,1.5896458827164355,0.999822352380809
254,64516,16387064,1.595929068023615,0.9996841892832999
255,65025,16581375,1.6022122533307945,0.9995065603657316
256,65536,16777216,1.6084954386379742,0.9992894726405892
257,66049,16974593,1.6147786239451538,0.9990329346781247
258,66564,17173512,1.6210618092523335,0.9987369566060175
259,67081,17373979,1.6273449945595129,0.998401550108975
260,67600,17576000,1.6336281798666925,0.9980267284282716
261,68121,17779581,1.6399113651738721,0.9976125063612252
262,68644,17984728,1.6461945504810518,0.9971589002606139
263,69169,18191447,1.6524777357882312,0.9966659280340299
264,69696,18399744,1.6587609210954108,0.9961336091431725
265,70225,18609625,1.6650441064025905,0.99556196460308
266,70756,18821096,1.6713272917097701,0.9949510169813002
267,71289,19034163,1.6776104770169495,0.9943007903969989
268,71824,19248832,1.6838936623241292,0.9936113105200084
269,72361,19465109,1.6901768476313088,0.9928826045698137
270,72900,19683000,1.6964600329384885,0.9921147013144778
271,73441,19902511,1.7027432182456679,0.9913076310695066
272,73984,20123648,1.7090264035528475,0.9904614256966512
273,74529,20346417,1.7153095888600272,0.9895761186026509
274,75076,20570824,1.7215927741672068,0.988651744737914
275,75625,20796875,1.7278759594743862,0.9876883405951378
276,76176,21024576,1.7341591447815659,0.986685944207868
277,76729,21253933,1.7404423300887455,0.985644595148998
278,77284,21484952,1.7467255153959251,0.9845643345292053
279,77841,21717639,1.7530087007031048,0.9834452049953296
280,78400,21952000,1.7592918860102842,0.9822872507286887
281,78961,22188041,1.7655750713174638,0.9810905174433341
282,79524,22425768,1.7718582566246435,0.9798550523842469
283,80089,22665187,1.778141441931823,0.9785809043254721
284,80656,22906304,1.7844246272390025,0.9772681235681935
285,81225,23149125,1.7907078125461822,0.9759167619387474
286,81796,23393656,1.7969909978533618,0.9745268727865771
287,82369,23639903,1.8032741831605414,0.9730985109821265
288,82944,23887872,1.8095573684677209,0.971631732914674
289,83521,24137569,1.8158405537749005,0.9701265964901058
290,84100,24389000,1.8221237390820801,0.9685831611286311
291,84681,24642171,1.8284069243892598,0.967001487762435
292,85264,24897088,1.8346901096964392,0.9653816388332739
293,85849,25153757,1.8409732950036188,0.9637236782900097
294,86436,25412184,1.8472564803107985,0.9620276715860858
295,87025,25672375,1.8535396656179781,0.9602936856769431
296,87616,25934336,1.8598228509251575,0.958521789017376
297,88209,26198073,1.8661060362323372,0.9567120515588305
298,88804,26463592,1.8723892215395168,0.954864544746643
299,89401,26730899,1.8786724068466965,0.9529793415172187
300,90000,27000000,1.884955592153876,0.9510565162951535
301,90601,27270901,1.8912387774610555,0.9490961449902946
302,91204,27543608,1.8975219627682351,0.9470983049947442
303,91809,27818127,1.9038051480754148,0.9450630751798048
304,92416,28094464,1.9100883333825944,0.9429905358928644
305,93025,28372625,1.9163715186897738,0.9408807689542255
306,93636,28652616,1.9226547039969535,0.9387338576538741
307,94249,28934443,1.9289378893041331,0.9365498867481923
308,94864,29218112,1.9352210746113128,0.934328942456612
309,95481,29503629,1.9415042599184922,0.932071112458211
310,96100,29791000,1.9477874452256718,0.9297764858882515
311,96721,30080231,1.9540706305328515,0.9274451533346613
312,97344,30371328,1.960353815840031,0.925077206834458
313,97969,30664297,1.9666370011472105,0.9226727398701149
314,98596,30959144,1.9729201864543902,0.9202318473658704
315,99225,31255875,1.9792033717615698,0.9177546256839811
316,99856,31554496,1.9854865570687494,0.9152411726209175
317,100489,31855013,1.9917697423759289,0.9126915874035029
318,101124,32157432,1.9980529276831085,0.9101059706849957
319,101761,32461759,2.004336112990288,0.9074844245411169
320,102400,32768000,2.0106192982974678,0.9048270524660195
321,103041,33076161,2.0169024836046474,0.9021339593682027
322,103684,33386248,2.023185668911827,0.899405251566371
323,104329,33698267,2.0294688542190067,0.8966410367852358
324,104976,34012224,2.035752039526186,0.8938414241512639
325,105625,34328125,2.0420352248333655,0.8910065241883679
326,106276,34645976,2.048318410140545,0.8881364488135446
327,106929,34965783,2.054601595447725,0.8852313113324553
328,107584,35287552,2.0608847807549044,0.8822912264349533
329,108241,35611289,2.067167966062084,0.8793163101905562
330,108900,35937000,2.0734511513692637,0.8763066800438635
331,109561,36264691,2.0797343366764434,0.87326245480992
332,110224,36594368,2.0860175219836226,0.8701837546695257
333,110889,36926037,2.092300707290802,0.8670707011644901
334,111556,37259704,2.098583892597982,0.8639234171928354
335,112225,37595375,2.1048670779051615,0.8607420270039436
336,112896,37933056,2.111150263212341,0.8575266561936522
337,113569,38272753,2.1174334485195208,0.8542774316992952
338,114244,38614472,2.1237166338267004,0.8509944817946917
339,114921,38958219,2.12999981913388,0.8476779360850831
340,115600,39304000,2.1362830044410592,0.8443279255020152
341,116281,39651821,2.142566189748239,0.8409445822981692
342,116964,40001688,2.1488493750554185,0.8375280400421418
343,117649,40353607,2.155132560362598,0.8340784336131711
344,118336,40707584,2.161415745669778,0.8305958991958127
345,119025,41063625,2.1676989309769574,0.8270805742745617
346,119716,41421736,2.173982116284137,0.8235325976284273
347,120409,41781923,2.1802653015913167,0.8199521093254521
348,121104,42144192,2.1865484868984963,0.8163392507171838
349,121801,42508549,2.1928316722056755,0.8126941644330941
350,122500,42875000,2.199114857512855,0.8090169943749475
351,123201,43243551,2.205398042820035,0.805307885711122
352,123904,43614208,2.2116812281272145,0.8015669848708765
353,124609,43986977,2.217964413434394,0.797794439538571
354,125316,44361864,2.2242475987415737,0.7939903986478353
355,126025,44738875,2.2305307840487534,0.7901550123756903
356,126736,45118016,2.236813969355933,0.7862884321366188
357,127449,45499293,2.243097154663112,0.7823908105765882
358,128164,45882712,2.249380339970292,0.7784623015670235
359,128881,46268279,2.2556635252774715,0.7745030601987338
360,129600,46656000,2.261946710584651,0.7705132427757893
